# dimensionless total lensed [l(l+1)/2pi] C_l's
# for l=2 to 2500, i.e. number of multipoles equal to 2499
#
# -> if you prefer output in CAMB/HealPix/LensPix units/order, set 'format' to 'camb' in input file
# -> if you don't want to see such a header, set 'headers' to 'no' in input file
# -> for CMB lensing (phi), these are C_l^phi-phi for the lensing potential.
#    Remember the conversion factors:
#    C_l^dd (deflection) = l(l+1) C_l^phi-phi
#    C_l^gg (shear/convergence) = 1/4 (l(l+1))^2 C_l^phi-phi
#
# 1:l     2:TT                     3:EE                     4:TE                     5:BB                     6:phiphi                 7:TPhi                   8:Ephi               
    2       1.372138914359e-10       4.170059471109e-15       3.531455740387e-13       2.314916521050e-19       8.085750917602e-09       4.474062289889e-10      -1.840190226502e-12 
    3       1.299321124886e-10       5.349405036133e-15       3.959322442307e-13       4.630779220168e-19       5.074405124853e-09       3.185854387150e-10      -1.395753628937e-12 
    4       1.230199168663e-10       4.634166031778e-15       3.700713483222e-13       7.720049256342e-19       3.544010904191e-09       2.413432479654e-10      -9.146613970926e-13 
    5       1.178346986181e-10       3.097119377966e-15       3.151233663883e-13       1.158393661186e-18       2.649824407853e-09       1.905990166190e-10      -5.095704965545e-13 
    6       1.142717725831e-10       1.734492157806e-15       2.538016120959e-13       1.622391060865e-18       2.071818999407e-09       1.550548790352e-10      -2.106851822864e-13 
    7       1.119946948961e-10       9.379265784199e-16       1.992909538917e-13       2.164167305265e-18       1.671455262791e-09       1.290342623112e-10      -1.966420919615e-14 
    8       1.106635188344e-10       6.051459475353e-16       1.573547032061e-13       2.783912783399e-18       1.380632989581e-09       1.093273699318e-10       7.820962116996e-14 
    9       1.100413200472e-10       4.863645692791e-16       1.292433390775e-13       3.481834787093e-18       1.162231330527e-09       9.397054984197e-11       1.060335380985e-13 
   10       1.099379364262e-10       4.157062482751e-16       1.136214461915e-13       4.258154034937e-18       9.938345524203e-10       8.176113343164e-11       8.948239177365e-14 
   11       1.102425406764e-10       3.505266245327e-16       1.078783560949e-13       5.113101124030e-18       8.359850685544e-10       7.217121825794e-11       5.252783164853e-14 
   12       1.108893737552e-10       3.062039174274e-16       1.089955937036e-13       6.046913007406e-18       7.305971907446e-10       6.393986727201e-11       1.288893461469e-14 
   13       1.117688370851e-10       2.941098372067e-16       1.142477269106e-13       7.059829591417e-18       6.440713495527e-10       5.714233711822e-11      -1.758473914592e-14 
   14       1.128021237560e-10       3.065123048496e-16       1.216198303736e-13       8.152090540472e-18       5.720663743545e-10       5.119244281469e-11      -3.433463324326e-14 
   15       1.140127147563e-10       3.315902730352e-16       1.298208720132e-13       9.323932366827e-18       5.114485905214e-10       4.618075853341e-11      -3.753095322546e-14 
   16       1.154025750322e-10       3.666797389613e-16       1.381699063850e-13       1.057558587092e-17       4.599022208679e-10       4.192680210114e-11      -3.108771372938e-14 
   17       1.168568906271e-10       4.170789784598e-16       1.465033036493e-13       1.190727398343e-17       4.156777180608e-10       3.825230426988e-11      -2.018260366825e-14 
   18       1.184096739535e-10       4.882874660600e-16       1.549898516521e-13       1.331920987128e-17       3.772867276351e-10       3.496357045924e-11      -9.781611940103e-15 
   19       1.200754744305e-10       5.808234036225e-16       1.638546162180e-13       1.481159653975e-17       3.441240575735e-10       3.205292542395e-11      -2.456989849269e-15 
   20       1.217917601904e-10       6.928644271638e-16       1.732891738829e-13       1.638462409979e-17       3.149116799066e-10       2.950764765233e-11       1.530429007466e-16 
   21       1.235729322028e-10       8.236199482934e-16       1.832508332226e-13       1.803847210263e-17       2.891920428545e-10       2.728907726649e-11      -1.389589361937e-15 
   22       1.254249019401e-10       9.723726194637e-16       1.935413137066e-13       1.977330655012e-17       2.663515717747e-10       2.530974797387e-11      -5.384898542761e-15 
   23       1.273358966141e-10       1.139466651128e-15       2.038303121155e-13       2.158928364403e-17       2.460769997598e-10       2.352457750003e-11      -1.017805452216e-14 
   24       1.292719689732e-10       1.325365075838e-15       2.137040627850e-13       2.348654674345e-17       2.279002172517e-10       2.188548380418e-11      -1.400643015987e-14 
   25       1.312540068668e-10       1.530027286603e-15       2.228834004527e-13       2.546523178012e-17       2.116081762376e-10       2.040069544020e-11      -1.602521936996e-14 
   26       1.333008007661e-10       1.753500107081e-15       2.311312197861e-13       2.752546358726e-17       1.969068556414e-10       1.907814311972e-11      -1.583878725393e-14 
   27       1.353966288654e-10       1.997800591740e-15       2.383258635587e-13       2.966736112643e-17       1.836203143486e-10       1.789142021261e-11      -1.399034419768e-14 
   28       1.375076313901e-10       2.265538346266e-15       2.444109794582e-13       3.189103498152e-17       1.715198086510e-10       1.679691861295e-11      -1.141543859739e-14 
   29       1.396418637918e-10       2.558158545340e-15       2.494444131166e-13       3.419659598040e-17       1.605437698410e-10       1.578948643553e-11      -8.786029498379e-15 
   30       1.418103509788e-10       2.876729313450e-15       2.535572039955e-13       3.658414796623e-17       1.505745747575e-10       1.486764217109e-11      -6.818486701969e-15 
   31       1.440136884170e-10       3.222266897129e-15       2.568854569851e-13       3.905378778757e-17       1.414091698579e-10       1.402216734154e-11      -6.179358255238e-15 
   32       1.462539731312e-10       3.595736540294e-15       2.593856287402e-13       4.160561631318e-17       1.330004221455e-10       1.324824107598e-11      -6.689313801736e-15 
   33       1.485246370044e-10       3.998040693376e-15       2.609493869678e-13       4.423973129815e-17       1.252890699133e-10       1.253623827609e-11      -7.807809428985e-15 
   34       1.508132049845e-10       4.430023134941e-15       2.614539966248e-13       4.695622610168e-17       1.181674358346e-10       1.187240044435e-11      -8.935292943193e-15 
   35       1.531268382704e-10       4.892507163465e-15       2.607774251786e-13       4.975519534938e-17       1.115992030379e-10       1.125506578215e-11      -9.794769787206e-15 
   36       1.554741213308e-10       5.386261071494e-15       2.587862720315e-13       5.263673134246e-17       1.055318020717e-10       1.068325396468e-11      -1.017526240849e-14 
   37       1.578582388713e-10       5.912012779209e-15       2.553555838445e-13       5.560092229725e-17       9.988641206076e-11       1.015336840275e-11      -9.906375969037e-15 
   38       1.602792430589e-10       6.470553108932e-15       2.504546688419e-13       5.864785110027e-17       9.464852435292e-11       9.663882694766e-12      -9.123547291437e-15 
   39       1.627313181276e-10       7.062660327590e-15       2.440899328024e-13       6.177759626560e-17       8.980158812227e-11       9.211672951850e-12      -8.093894325918e-15 
   40       1.652012820689e-10       7.689068887369e-15       2.362830717872e-13       6.499023234760e-17       8.529945982908e-11       8.790415993283e-12      -7.150723575907e-15 
   41       1.676745420194e-10       8.350470957687e-15       2.270606508518e-13       6.828582729585e-17       8.108249592566e-11       8.392668103286e-12      -6.609280491398e-15 
   42       1.701569649161e-10       9.047528422194e-15       2.164165693937e-13       7.166443333791e-17       7.713833812768e-11       8.017566840765e-12      -6.470703751721e-15 
   43       1.726589551905e-10       9.780860025179e-15       2.043389108593e-13       7.512609323111e-17       7.345657012999e-11       7.665180147454e-12      -6.628918125828e-15 
   44       1.751891837034e-10       1.055103486411e-14       1.908203505284e-13       7.867084258952e-17       7.001047651953e-11       7.334265354090e-12      -6.949091207204e-15 
   45       1.777537851558e-10       1.135856961373e-14       1.758480656618e-13       8.229870624739e-17       6.676659729267e-11       7.022869884388e-12      -7.295509621662e-15 
   46       1.803542280237e-10       1.220392519710e-14       1.593695684955e-13       8.600968635353e-17       6.371985600638e-11       6.730605608477e-12      -7.629396511424e-15 
   47       1.829884008162e-10       1.308750479660e-14       1.413168754730e-13       8.980377050087e-17       6.086672588899e-11       6.456868131806e-12      -7.937269167269e-15 
   48       1.856508554578e-10       1.400965151379e-14       1.216153887687e-13       9.368093460549e-17       5.819463384471e-11       6.200118762213e-12      -8.203705641678e-15 
   49       1.883325355797e-10       1.497064581464e-14       1.001834353221e-13       9.764114257707e-17       5.568128761551e-11       5.957815891422e-12      -8.411250183709e-15 
   50       1.910243104173e-10       1.597070500168e-14       7.694822242290e-14       1.016843457540e-16       5.330139436894e-11       5.727172004612e-12      -8.547896463661e-15 
   51       1.937293377152e-10       1.700998738838e-14       5.189987969277e-14       1.058104817921e-16       5.105052739450e-11       5.507826147110e-12      -8.632151270019e-15 
   52       1.964535869280e-10       1.808858484183e-14       2.505128938132e-14       1.100194749049e-16       4.892657471018e-11       5.299778257289e-12      -8.694610608110e-15 
   53       1.992022364871e-10       1.920651845388e-14      -3.576743909136e-15       1.143112357395e-16       4.692259655258e-11       5.102597880664e-12      -8.771232340151e-15 
   54       2.019795811788e-10       2.036373608183e-14      -3.395518164556e-14       1.186856610366e-16       4.502650037058e-11       4.915394404477e-12      -8.903598222000e-15 
   55       2.047888094041e-10       2.156015468567e-14      -6.605747655329e-14       1.231426410834e-16       4.322473316842e-11       4.737127113992e-12      -9.126936774706e-15 
   56       2.076314823447e-10       2.279580529053e-14      -9.989558203533e-14       1.276820850218e-16       4.151517723113e-11       4.567693749423e-12      -9.430107341244e-15 
   57       2.105077631771e-10       2.407071972827e-14      -1.354923425124e-13       1.323039012306e-16       3.989688870000e-11       4.407060233456e-12      -9.786134188353e-15 
   58       2.134164402916e-10       2.538488829748e-14      -1.728713562554e-13       1.370079900467e-16       3.836619608175e-11       4.254928376234e-12      -1.016336457931e-14 
   59       2.163548296011e-10       2.673825904940e-14      -2.120570938113e-13       1.417942437277e-16       3.691653176230e-11       4.110719349758e-12      -1.052525396008e-14 
   60       2.193186768509e-10       2.813073707388e-14      -2.530750164290e-13       1.466625464153e-16       3.553826352052e-11       3.973557162269e-12      -1.083015114549e-14 
   61       2.223037920333e-10       2.956210475103e-14      -2.959449496156e-13       1.516127891489e-16       3.422137069729e-11       3.842516844996e-12      -1.104071758150e-14 
   62       2.253116023374e-10       3.103176320373e-14      -3.406591978080e-13       1.566449189299e-16       3.296455581433e-11       3.717471496350e-12      -1.115514173055e-14 
   63       2.283446779372e-10       3.253893128012e-14      -3.871997050968e-13       1.617589006547e-16       3.176788848185e-11       3.598406906171e-12      -1.118258178509e-14 
   64       2.314050679856e-10       3.408271630911e-14      -4.355442729264e-13       1.669547034680e-16       3.063006453761e-11       3.485165655120e-12      -1.113423891816e-14 
   65       2.344942578817e-10       3.566211087859e-14      -4.856664645107e-13       1.722323012030e-16       2.954832781942e-11       3.377438988189e-12      -1.102344815145e-14 
   66       2.376131265390e-10       3.727598961370e-14      -5.375355092500e-13       1.775916728221e-16       2.851839193770e-11       3.274758688218e-12      -1.086576922343e-14 
   67       2.407619036524e-10       3.892310595511e-14      -5.911162071468e-13       1.830328028578e-16       2.753436204793e-11       3.176488949405e-12      -1.067907745747e-14 
   68       2.439405945307e-10       4.060221899763e-14      -6.463731719731e-13       1.885556906171e-16       2.659030984582e-11       3.081996334093e-12      -1.048028014819e-14 
   69       2.471504500737e-10       4.231251105197e-14      -7.032847728222e-13       1.941603789789e-16       2.568554400107e-11       2.991217798067e-12      -1.027448998864e-14 
   70       2.503927192537e-10       4.405324929304e-14      -7.618318587510e-13       1.998469322500e-16       2.482027202773e-11       2.904193692189e-12      -1.006381105437e-14 
   71       2.536681776815e-10       4.582366328854e-14      -8.219936850833e-13       2.056154285702e-16       2.399400625035e-11       2.820896354957e-12      -9.850523665721e-15 
   72       2.569770968328e-10       4.762294510357e-14      -8.837479287912e-13       2.114659605765e-16       2.320552785838e-11       2.741226540579e-12      -9.637088952019e-15 
   73       2.603192132736e-10       4.945024940523e-14      -9.470707038770e-13       2.173986360684e-16       2.245285096063e-11       2.665009847040e-12      -9.426153415798e-15 
   74       2.636936978860e-10       5.130469356724e-14      -1.011936576755e-12       2.234135786723e-16       2.173318663967e-11       2.591993144178e-12      -9.220553497034e-15 
   75       2.670991250939e-10       5.318535777455e-14      -1.078318581633e-12       2.295109285065e-16       2.104290700629e-11       2.521841001756e-12      -9.023320137366e-15 
   76       2.705340811891e-10       5.509122497915e-14      -1.146187107400e-12       2.356908366007e-16       2.037844606268e-11       2.454221065216e-12      -8.837300049388e-15 
   77       2.739991854055e-10       5.702098789515e-14      -1.215506289939e-12       2.419534455124e-16       1.973927140622e-11       2.389086052635e-12      -8.663929702381e-15 
   78       2.774953831993e-10       5.897320683489e-14      -1.286236986827e-12       2.482989063672e-16       1.912539164204e-11       2.326436930714e-12      -8.504245020538e-15 
   79       2.810233224611e-10       6.094636562487e-14      -1.358337839827e-12       2.547273853179e-16       1.853645118395e-11       2.266236809377e-12      -8.359241601919e-15 
   80       2.845833358469e-10       6.293887047704e-14      -1.431765267136e-12       2.612390640818e-16       1.797171351884e-11       2.208409193784e-12      -8.229871422903e-15 
   81       2.881754231089e-10       6.494904885994e-14      -1.506473455620e-12       2.678341404766e-16       1.743004447119e-11       2.152836236348e-12      -8.117039542640e-15 
   82       2.917992334268e-10       6.697514836994e-14      -1.582414353060e-12       2.745128289577e-16       1.690989546745e-11       2.099356988751e-12      -8.021600807503e-15 
   83       2.954540477389e-10       6.901533560249e-14      -1.659537660389e-12       2.812753611548e-16       1.640928680054e-11       2.047765653964e-12      -7.944356555539e-15 
   84       2.991391435501e-10       7.106776463229e-14      -1.737791945253e-12       2.881219822700e-16       1.592628893199e-11       1.997861899298e-12      -7.885552796318e-15 
   85       3.028549975490e-10       7.313079797034e-14      -1.817128211786e-12       2.950529384126e-16       1.546059473385e-11       1.949615207931e-12      -7.843286384490e-15 
   86       3.066022508913e-10       7.520282033766e-14      -1.897496911155e-12       3.020684881389e-16       1.501217841926e-11       1.903024695224e-12      -7.814827352842e-15 
   87       3.103813333728e-10       7.728217235358e-14      -1.978846883780e-12       3.091689068643e-16       1.458081243714e-11       1.858068610020e-12      -7.797082442446e-15 
   88       3.141924521892e-10       7.936715057692e-14      -2.061125370425e-12       3.163544873301e-16       1.416605910697e-11       1.814703461641e-12      -7.786583428548e-15 
   89       3.180355806950e-10       8.145600754703e-14      -2.144278023279e-12       3.236255400711e-16       1.376726225368e-11       1.772863146874e-12      -7.779475446455e-15 
   90       3.219104471625e-10       8.354695182494e-14      -2.228248917046e-12       3.309823938823e-16       1.338353884248e-11       1.732458076967e-12      -7.771505317422e-15 
   91       3.258165235413e-10       8.563814803449e-14      -2.312980560033e-12       3.384253962863e-16       1.301377061364e-11       1.693374304622e-12      -7.758009874537e-15 
   92       3.297530142173e-10       8.772771690341e-14      -2.398413905233e-12       3.459549140005e-16       1.265659571737e-11       1.655472650983e-12      -7.733904288613e-15 
   93       3.337191276508e-10       8.981376285728e-14      -2.484488618121e-12       3.535713400935e-16       1.231073191547e-11       1.618623707148e-12      -7.694879148628e-15 
   94       3.377149624392e-10       9.189446145938e-14      -2.571143902020e-12       3.612751156720e-16       1.197601996046e-11       1.582820756668e-12      -7.641223009075e-15 
   95       3.417407343551e-10       9.396798525901e-14      -2.658317817947e-12       3.690667123348e-16       1.165252240454e-11       1.548082301522e-12      -7.574555844833e-15 
   96       3.457964980826e-10       9.603247782414e-14      -2.745947053378e-12       3.769466263249e-16       1.134020225237e-11       1.514417325400e-12      -7.496676374700e-15 
   97       3.498821398591e-10       9.808605416073e-14      -2.833966936862e-12       3.849153790890e-16       1.103891914723e-11       1.481824913142e-12      -7.409566979654e-15 
   98       3.539973701178e-10       1.001268011321e-13      -2.922311452631e-12       3.929735178362e-16       1.074842555721e-11       1.450293870172e-12      -7.315398621110e-15 
   99       3.581417161298e-10       1.021527778781e-13      -3.010913255208e-12       4.011216160969e-16       1.046836296142e-11       1.419802341934e-12      -7.216535759192e-15 
  100       3.623145146464e-10       1.041620162348e-13      -3.099703684021e-12       4.093602742822e-16       1.019825803621e-11       1.390317433326e-12      -7.115541270986e-15 
  101       3.665149045413e-10       1.061525211533e-13      -3.188612778010e-12       4.176901202421e-16       9.937518841294e-12       1.361794828141e-12      -7.015181368810e-15 
  102       3.707418194528e-10       1.081222711194e-13      -3.277569290240e-12       4.261118098254e-16       9.685431006029e-12       1.334178408494e-12      -6.918430518471e-15 
  103       3.749939804259e-10       1.100692185731e-13      -3.366500702511e-12       4.346260274380e-16       9.441153915551e-12       1.307399874267e-12      -6.828476357530e-15 
  104       3.792701666319e-10       1.119913416966e-13      -3.455334235891e-12       4.432334682415e-16       9.203911306072e-12       1.281394250002e-12      -6.748016255441e-15 
  105       3.835700850223e-10       1.138868068449e-13      -3.544000006312e-12       4.519347808060e-16       8.973600587398e-12       1.256149610958e-12      -6.677028179269e-15 
  106       3.878936049825e-10       1.157538289412e-13      -3.632428324475e-12       4.607306177168e-16       8.750259104153e-12       1.231663396111e-12      -6.614706471650e-15 
  107       3.922404864949e-10       1.175906230391e-13      -3.720548763234e-12       4.696216535956e-16       8.533875419720e-12       1.207926917040e-12      -6.560140487688e-15 
