# dimensionless total [l(l+1)/2pi] C_l's
# for l=2 to 3000, i.e. number of multipoles equal to 2999
#
# -> if you prefer output in CAMB/HealPix/LensPix units/order, set 'format' to 'camb' in input file
# -> if you don't want to see such a header, set 'headers' to 'no' in input file
# -> for CMB lensing (phi), these are C_l^phi-phi for the lensing potential.
#    Remember the conversion factors:
#    C_l^dd (deflection) = l(l+1) C_l^phi-phi
#    C_l^gg (shear/convergence) = 1/4 (l(l+1))^2 C_l^phi-phi
#
# 1:l     2:TT                     3:EE                     4:TE                     5:BB                     6:phiphi                 7:TPhi                   8:Ephi               
    2       1.372559295498e-10       4.170105849153e-15       3.531737663198e-13       0.000000000000e+00       8.114308541086e-09       4.482537292085e-10      -1.840232333578e-12 
    3       1.299863139966e-10       5.349456438654e-15       3.959832124905e-13       0.000000000000e+00       5.100644073450e-09       3.194492055899e-10      -1.395808115602e-12 
    4       1.230861104074e-10       4.634062448722e-15       3.701462254231e-13       0.000000000000e+00       3.567099818658e-09       2.421795859157e-10      -9.147147686621e-13 
    5       1.179139380227e-10       3.096702815151e-15       3.152229907489e-13       0.000000000000e+00       2.670226098393e-09       1.913995503738e-10      -5.096172001010e-13 
    6       1.143656514850e-10       1.733628518847e-15       2.539273300892e-13       0.000000000000e+00       2.089987986137e-09       1.558179470506e-10      -2.107226777936e-13 
    7       1.121050570128e-10       9.365101271406e-16       1.994455850864e-13       0.000000000000e+00       1.687661429820e-09       1.297594706300e-10      -1.969253869751e-14 
    8       1.107925949769e-10       6.030999694709e-16       1.575419746501e-13       0.000000000000e+00       1.395095696702e-09       1.100156627103e-10       7.818723170304e-14 
    9       1.101911867967e-10       4.836395698948e-16       1.294674237842e-13       0.000000000000e+00       1.175207476431e-09       9.462414269708e-11       1.060116061901e-13 
   10       1.101106065251e-10       4.122748557516e-16       1.138881335410e-13       0.000000000000e+00       1.005599384171e-09       8.238341745008e-11       8.945577310301e-14 
   11       1.104404855015e-10       3.463763243579e-16       1.081953865129e-13       0.000000000000e+00       8.444916206469e-10       7.270953076593e-11       5.249459902730e-14 
   12       1.111148265139e-10       3.013285132827e-16       1.093705913011e-13       0.000000000000e+00       7.383807338909e-10       6.445317168210e-11       1.284864517121e-14 
   13       1.120238829455e-10       2.885063581535e-16       1.146861050660e-13       0.000000000000e+00       6.512361806546e-10       5.763197054325e-11      -1.762820626498e-14 
   14       1.130887604524e-10       3.001860887780e-16       1.221250694628e-13       0.000000000000e+00       5.786956546793e-10       5.165984851249e-11      -3.437725011237e-14 
   15       1.143328212320e-10       3.245625666505e-16       1.303953548386e-13       0.000000000000e+00       5.176097573705e-10       4.662752617718e-11      -3.756803397871e-14 
   16       1.157583047907e-10       3.589913143036e-16       1.388149707542e-13       0.000000000000e+00       4.656507112712e-10       4.235447860454e-11      -3.111680917265e-14 
   17       1.172497838900e-10       4.087859341502e-16       1.472200512969e-13       0.000000000000e+00       4.210596544772e-10       3.866197276556e-11      -2.020431011913e-14 
   18       1.188415564974e-10       4.794545484943e-16       1.557795888373e-13       0.000000000000e+00       3.823391084647e-10       3.535598449718e-11      -9.799574085619e-15 
   19       1.205482009707e-10       5.715242693280e-16       1.647183215738e-13       0.000000000000e+00       3.488834692431e-10       3.242919916863e-11      -2.475903987254e-15 
   20       1.223069971191e-10       6.831819172145e-16       1.742273527280e-13       0.000000000000e+00       3.194045964918e-10       2.986893073645e-11       1.285513012396e-16 
   21       1.241323235989e-10       8.136515189425e-16       1.842637156015e-13       0.000000000000e+00       2.934427896692e-10       2.763641779544e-11      -1.422796643095e-15 
   22       1.260301024715e-10       9.622320393865e-16       1.946288432013e-13       0.000000000000e+00       2.703810373321e-10       2.564383486926e-11      -5.427593976435e-15 
   23       1.279884711572e-10       1.129281817528e-15       2.049915675438e-13       0.000000000000e+00       2.499044681147e-10       2.384612758439e-11      -1.022900680365e-14 
   24       1.299733695214e-10       1.315277305095e-15       2.149371102429e-13       0.000000000000e+00       2.315415399367e-10       2.219522260274e-11      -1.406247667902e-14 
   25       1.320057207224e-10       1.520192392610e-15       2.241858982992e-13       0.000000000000e+00       2.150780794646e-10       2.069937007987e-11      -1.608237903475e-14 
   26       1.341043690067e-10       1.744089966641e-15       2.325005719546e-13       0.000000000000e+00       2.002180302527e-10       1.936640156880e-11      -1.589297200736e-14 
   27       1.362534599123e-10       1.989008924716e-15       2.397587949787e-13       0.000000000000e+00       1.867843524294e-10       1.816976327462e-11      -1.403888140886e-14 
   28       1.384189513203e-10       2.257582478119e-15       2.459034809202e-13       0.000000000000e+00       1.745465432069e-10       1.706564119411e-11      -1.145776273333e-14 
   29       1.406088713672e-10       2.551274461504e-15       2.509922379329e-13       0.000000000000e+00       1.634428882784e-10       1.604895131795e-11      -8.823174109115e-15 
   30       1.428342744667e-10       2.871170005887e-15       2.551561152115e-13       0.000000000000e+00       1.533549480781e-10       1.511830990674e-11      -6.853191436122e-15 
   31       1.450957843047e-10       3.218302802711e-15       2.585311951615e-13       0.000000000000e+00       1.440778969642e-10       1.426453010095e-11      -6.215828305078e-15 
   32       1.473954628104e-10       3.593658609210e-15       2.610732470243e-13       0.000000000000e+00       1.355644204960e-10       1.348278622878e-11      -6.730829422339e-15 
   33       1.497266812336e-10       3.998161805252e-15       2.626729754411e-13       0.000000000000e+00       1.277548700120e-10       1.276337786496e-11      -7.855628482218e-15 
   34       1.520769119749e-10       4.432678432328e-15       2.632066496575e-13       0.000000000000e+00       1.205406040058e-10       1.209242988055e-11      -8.988488251973e-15 
   35       1.544533364497e-10       4.898052937455e-15       2.625515134647e-13       0.000000000000e+00       1.138851141746e-10       1.146828179496e-11      -9.851541477766e-15 
   36       1.568645906694e-10       5.395074559559e-15       2.605735138623e-13       0.000000000000e+00       1.077354121960e-10       1.088995981399e-11      -1.023326878070e-14 
   37       1.593138970812e-10       5.924492321911e-15       2.571470529300e-13       0.000000000000e+00       1.020119263421e-10       1.035384684015e-11      -9.962927048608e-15 
   38       1.618012325367e-10       6.487118323610e-15       2.522408576490e-13       0.000000000000e+00       9.670013936169e-11       9.858416736628e-12      -9.176669368167e-15 
   39       1.643206580401e-10       7.083752224933e-15       2.458607812608e-13       0.000000000000e+00       9.178343927851e-11       9.400528771435e-12      -8.142830542781e-15 
   40       1.668588449274e-10       7.715149949194e-15       2.380279836556e-13       0.000000000000e+00       8.721523623584e-11       8.973809122758e-12      -7.196225410309e-15 
   41       1.694010709240e-10       8.382025209125e-15       2.287685041633e-13       0.000000000000e+00       8.293525595011e-11       8.570751954163e-12      -6.653499502995e-15 
   42       1.719532326144e-10       9.085061549445e-15       2.180757020651e-13       0.000000000000e+00       7.893109040162e-11       8.190504221427e-12      -6.515682710780e-15 
   43       1.745258247696e-10       9.824899417316e-15       2.059371263792e-13       0.000000000000e+00       7.519227907989e-11       7.833153688121e-12      -6.676058261639e-15 
   44       1.771276322513e-10       1.060212960996e-14       1.923449322535e-13       0.000000000000e+00       7.169183485098e-11       7.497463635576e-12      -6.998988625251e-15 
   45       1.797648926811e-10       1.141729039870e-14       1.772857037096e-13       0.000000000000e+00       6.839592714852e-11       7.181478566821e-12      -7.347966341671e-15 
   46       1.824390467319e-10       1.227086392442e-14       1.607059899575e-13       0.000000000000e+00       6.529948672266e-11       6.884818396243e-12      -7.684041425071e-15 
   47       1.851479104536e-10       1.316327435831e-14       1.425366850007e-13       0.000000000000e+00       6.239900536755e-11       6.606881628108e-12      -7.993734235503e-15 
   48       1.878859508132e-10       1.409488559998e-14       1.227019866529e-13       0.000000000000e+00       5.968179445586e-11       6.346120633481e-12      -8.261633723195e-15 
   49       1.906440132007e-10       1.506599869285e-14       1.011189318622e-13       0.000000000000e+00       5.712530163326e-11       6.099972098392e-12      -8.470303400492e-15 
   50       1.934128797888e-10       1.607685140416e-14       7.771346715876e-14       0.000000000000e+00       5.470392524547e-11       5.865621932951e-12      -8.607785630640e-15 
   51       1.961957154770e-10       1.712762282663e-14       5.247488058657e-14       0.000000000000e+00       5.241322350540e-11       5.642706129899e-12      -8.692734011649e-15 
   52       1.989985292346e-10       1.821842555824e-14       2.541534148376e-14       0.000000000000e+00       5.025109549520e-11       5.431222798965e-12      -8.755940360676e-15 
   53       2.018265484808e-10       1.934930122305e-14      -3.445037289379e-15       0.000000000000e+00       4.821053513920e-11       5.230732216268e-12      -8.833589923927e-15 
   54       2.046841268660e-10       2.052021798843e-14      -3.407788590269e-14       0.000000000000e+00       4.627930073284e-11       5.040326541231e-12      -8.967524916457e-15 
   55       2.075745065674e-10       2.173111341881e-14      -6.645736730993e-14       0.000000000000e+00       4.444366453516e-11       4.858946480722e-12      -9.193189053757e-15 
   56       2.104992472939e-10       2.298204119100e-14      -1.005964034279e-13       0.000000000000e+00       4.270150941610e-11       4.686492777753e-12      -9.499350355442e-15 
   57       2.134584939047e-10       2.427305647741e-14      -1.365188992896e-13       0.000000000000e+00       4.105190685142e-11       4.522937797234e-12      -9.858834231977e-15 
   58       2.164510137090e-10       2.560417310211e-14      -1.742495448636e-13       0.000000000000e+00       3.949115413518e-11       4.367986369739e-12      -1.023975414151e-14 
   59       2.194740985786e-10       2.697536282450e-14      -2.138139341986e-13       0.000000000000e+00       3.801260287215e-11       4.221059025847e-12      -1.060529516833e-14 
   60       2.225234670605e-10       2.838655462289e-14      -2.552386845679e-13       0.000000000000e+00       3.660648747017e-11       4.081275230476e-12      -1.091349760127e-14 
   61       2.255949056834e-10       2.983755307944e-14      -2.985447378858e-13       0.000000000000e+00       3.526264545090e-11       3.947703761423e-12      -1.112674325225e-14 
   62       2.286898448343e-10       3.132777374817e-14      -3.437252384103e-13       0.000000000000e+00       3.397977990698e-11       3.820217446889e-12      -1.124319223591e-14 
   63       2.318108664405e-10       3.285644684592e-14      -3.907628782795e-13       0.000000000000e+00       3.275798122126e-11       3.698801405128e-12      -1.127205058187e-14 
   64       2.349600333569e-10       3.442268969133e-14      -4.396361818147e-13       0.000000000000e+00       3.159594053570e-11       3.583294704715e-12      -1.122457978593e-14 
   65       2.381388466624e-10       3.602550342169e-14      -4.903194083440e-13       0.000000000000e+00       3.049086999901e-11       3.473382075169e-12      -1.111418824908e-14 
   66       2.413482029558e-10       3.766376970964e-14      -5.427824550253e-13       0.000000000000e+00       2.943842301419e-11       3.368585617574e-12      -1.095652271655e-14 
   67       2.445883516513e-10       3.933624747998e-14      -5.969907596698e-13       0.000000000000e+00       2.843261448622e-11       3.268256515202e-12      -1.076955971688e-14 
   68       2.478593180776e-10       4.104170141375e-14      -6.529095859002e-13       0.000000000000e+00       2.746742420373e-11       3.171748863529e-12      -1.057030461539e-14 
   69       2.511623677845e-10       4.277932503561e-14      -7.105181041175e-13       0.000000000000e+00       2.654216252071e-11       3.079000590656e-12      -1.036390768833e-14 
   70       2.544987635908e-10       4.454839785086e-14      -7.697980022457e-13       0.000000000000e+00       2.565705362799e-11       2.990055896096e-12      -1.015249681101e-14 
   71       2.578692957952e-10       4.634816122909e-14      -8.307293704803e-13       0.000000000000e+00       2.481161256906e-11       2.904889979807e-12      -9.938379306672e-15 
   72       2.612742513845e-10       4.817781849151e-14      -8.932907161917e-13       0.000000000000e+00       2.400460853466e-11       2.823405410593e-12      -9.724046623675e-15 
   73       2.647133832434e-10       5.003653499820e-14      -9.574589788289e-13       0.000000000000e+00       2.323402815722e-11       2.745428494517e-12      -9.512179012805e-15 
   74       2.681858793629e-10       5.192343823543e-14      -1.023209544823e-12       0.000000000000e+00       2.249703880544e-11       2.670705643308e-12      -9.305650204523e-15 
   75       2.716903320493e-10       5.383761790294e-14      -1.090516262489e-12       0.000000000000e+00       2.178995187872e-11       2.598899742765e-12      -9.107532086232e-15 
   76       2.752253457757e-10       5.577806447077e-14      -1.159350302576e-12       0.000000000000e+00       2.110914119128e-11       2.529676342361e-12      -8.920710241353e-15 
   77       2.787915567682e-10       5.774347172125e-14      -1.229676467077e-12       0.000000000000e+00       2.045407260681e-11       2.462988396955e-12      -8.746639288212e-15 
   78       2.823899274709e-10       5.973239819094e-14      -1.301456231261e-12       0.000000000000e+00       1.982476275257e-11       2.398837092471e-12      -8.586368014337e-15 
   79       2.860211231661e-10       6.174332435122e-14      -1.374648829689e-12       0.000000000000e+00       1.922085609792e-11       2.337184870311e-12      -8.440905130333e-15 
   80       2.896854942797e-10       6.377465143392e-14      -1.449211247447e-12       0.000000000000e+00       1.864160783365e-11       2.277953637613e-12      -8.311215967554e-15 
   81       2.933830586856e-10       6.582470025685e-14      -1.525098211379e-12       0.000000000000e+00       1.808586675146e-11       2.221022977521e-12      -8.198219175771e-15 
   82       2.971134840110e-10       6.789171004935e-14      -1.602262181317e-12       0.000000000000e+00       1.755205812325e-11       2.166228359445e-12      -8.102783420844e-15 
   83       3.008760699405e-10       6.997383727790e-14      -1.680653341317e-12       0.000000000000e+00       1.703816658059e-11       2.113359349325e-12      -8.025724082389e-15 
   84       3.046701125008e-10       7.206922492065e-14      -1.760220709564e-12       0.000000000000e+00       1.654222761314e-11       2.062211083203e-12      -7.967294944745e-15 
   85       3.084961050596e-10       7.417622605892e-14      -1.840915698706e-12       0.000000000000e+00       1.606393318503e-11       2.012752412803e-12      -7.925573682779e-15 
   86       3.123547049092e-10       7.629321537155e-14      -1.922689132418e-12       0.000000000000e+00       1.560326214347e-11       1.964982483137e-12      -7.897801424719e-15 
   87       3.162463578807e-10       7.841852199090e-14      -2.005490189091e-12       0.000000000000e+00       1.515998681985e-11       1.918879066234e-12      -7.880852345462e-15 
   88       3.201712870683e-10       8.055042951250e-14      -2.089266411864e-12       0.000000000000e+00       1.473366445737e-11       1.874397666582e-12      -7.871221876730e-15 
   89       3.241294815542e-10       8.268717600459e-14      -2.173963718663e-12       0.000000000000e+00       1.432362863864e-11       1.831470626577e-12      -7.865014917236e-15 
   90       3.281206851334e-10       8.482695401768e-14      -2.259526412228e-12       0.000000000000e+00       1.392898071330e-11       1.790006231968e-12      -7.857934042847e-15 
   91       3.321443850380e-10       8.696791059419e-14      -2.345897190151e-12       0.000000000000e+00       1.354858122563e-11       1.749887817299e-12      -7.845267716741e-15 
   92       3.361998006622e-10       8.910814727795e-14      -2.433017154908e-12       0.000000000000e+00       1.318104134218e-11       1.710972871360e-12      -7.821878499573e-15 
   93       3.402861566347e-10       9.124574747520e-14      -2.520826072063e-12       0.000000000000e+00       1.282505342382e-11       1.673128986619e-12      -7.783412450856e-15 
   94       3.444035735077e-10       9.337886322374e-14      -2.609263167514e-12       0.000000000000e+00       1.248045823428e-11       1.636349835403e-12      -7.730161010188e-15 
   95       3.485522908037e-10       9.550564155228e-14      -2.698266469261e-12       0.000000000000e+00       1.214732313720e-11       1.600655063761e-12      -7.663760847625e-15 
   96       3.527323873308e-10       9.762419867174e-14      -2.787772583181e-12       0.000000000000e+00       1.182561338880e-11       1.566054618078e-12      -7.586029331919e-15 
   97       3.569437738103e-10       9.973262036026e-14      -2.877716706467e-12       0.000000000000e+00       1.151518822085e-11       1.532548356264e-12      -7.498969503769e-15 
   98       3.611861855043e-10       1.018289623483e-13      -2.968032641069e-12       0.000000000000e+00       1.121579692363e-11       1.500125658953e-12      -7.404775049076e-15 
   99       3.654591748439e-10       1.039112507035e-13      -3.058652807137e-12       0.000000000000e+00       1.092707492898e-11       1.468765040701e-12      -7.305835272195e-15 
  100       3.697621040569e-10       1.059774822159e-13      -3.149508256456e-12       0.000000000000e+00       1.064853989327e-11       1.438433761183e-12      -7.204740069190e-15 
  101       3.740941377957e-10       1.080256247828e-13      -3.240528685889e-12       0.000000000000e+00       1.037958778038e-11       1.409087436390e-12      -7.104284901087e-15 
  102       3.784542357652e-10       1.100536177941e-13      -3.331642450819e-12       0.000000000000e+00       1.011948894471e-11       1.380669649821e-12      -7.007475767128e-15 
  103       3.828411453506e-10       1.120593725167e-13      -3.422776578586e-12       0.000000000000e+00       9.867384214178e-12       1.353111563688e-12      -6.917534178025e-15 
  104       3.872536708190e-10       1.140408244827e-13      -3.513857786901e-12       0.000000000000e+00       9.622480246664e-12       1.326347606980e-12      -6.837186000799e-15 
  105       3.916915382190e-10       1.159960978813e-13      -3.604815666809e-12       0.000000000000e+00       9.384674090859e-12       1.300365790651e-12      -6.766407873203e-15 
  106       3.961546341166e-10       1.179233641949e-13      -3.695579956760e-12       0.000000000000e+00       9.154006084833e-12       1.275163496081e-12      -6.704384217109e-15 
  107       4.006427351740e-10       1.198207931243e-13      -3.786079600213e-12       0.000000000000e+00       8.930466410255e-12       1.250731795581e-12      -6.650193320707e-15 
